#Acq. time (s)=	0.5
#Accumulations=	2
#Range (nm)=	400...600
#Windows=	2
#Auto scanning=	Off
#Autofocus=	Off
#SWIFT=	Off
#Macrospot=	Off
#AutoExposure=	Off
#Spike filter=	Multiple accum.
#Delay time (s)=	0
#Binning=	1
#Readout mode=	Signal
#DeNoise=	Off
#ICS correction=	On
#Dark correction=	Off
#Inst. Process=	Off
#Detector Gain=	High Sensitivity
#Detector ADC=	20 kHz       
#Detector temperature (°C)=	-75.07
#Instrument=	LabRAM HR Evol
#Detector=	Synapse BIDD
#Objective=	x10
#Grating=	300 gr/mm
#ND Filter=	1%
#Laser (nm)=	405 
#Hole=	100.021
#Temperature=	0
#Range=	Auto
#Laser Pol.=	No
#Raman. Pol.=	No
#Laser Pol. (°)=	0
#Raman Pol. (°)=	0.008
#StageXY=	Marzhauser
#StageZ=	Marzhauser
#X (µm)=	115.15
#Y (µm)=	-159
#Z (µm)=	147.55
#Full time(mm:ss)=	1:09
#Project=	
#Sample=	3min CF4 100um holes apart
#Site=	
#Title=	xBr75_2
#Remark=	
#Date=	28.06.2021 19:43
#Acquired=	28.06.2021 19:43:44
	400.053	400.16	400.267	400.375	400.482	400.589	400.696	400.803	400.911	401.018	401.125	401.232	401.34	401.447	401.554	401.661	401.768	401.876	401.983	402.09	402.197	402.305	402.412	402.519	402.626	402.733	402.841	402.948	403.055	403.162	403.269	403.377	403.484	403.591	403.698	403.806	403.913	404.02	404.127	404.234	404.342	404.449	404.556	404.663	404.77	404.878	404.985	405.092	405.199	405.306	405.414	405.521	405.628	405.735	405.842	405.95	406.057	406.164	406.271	406.378	406.486	406.593	406.7	406.807	406.914	407.022	407.129	407.236	407.343	407.45	407.558	407.665	407.772	407.879	407.986	408.094	408.201	408.308	408.415	408.522	408.63	408.737	408.844	408.951	409.058	409.165	409.273	409.38	409.487	409.594	409.701	409.809	409.916	410.023	410.13	410.237	410.344	410.452	410.559	410.666	410.773	410.88	410.988	411.095	411.202	411.309	411.416	411.523	411.631	411.738	411.845	411.952	412.059	412.167	412.274	412.381	412.488	412.595	412.702	412.81	412.917	413.024	413.131	413.238	413.345	413.453	413.56	413.667	413.774	413.881	413.988	414.096	414.203	414.31	414.417	414.524	414.631	414.739	414.846	414.953	415.06	415.167	415.274	415.382	415.489	415.596	415.703	415.81	415.917	416.024	416.132	416.239	416.346	416.453	416.56	416.667	416.775	416.882	416.989	417.096	417.203	417.31	417.417	417.525	417.632	417.739	417.846	417.953	418.06	418.168	418.275	418.382	418.489	418.596	418.703	418.81	418.918	419.025	419.132	419.239	419.346	419.453	419.56	419.668	419.775	419.882	419.989	420.096	420.203	420.31	420.418	420.525	420.632	420.739	420.846	420.953	421.06	421.168	421.275	421.382	421.489	421.596	421.703	421.81	421.917	422.025	422.132	422.239	422.346	422.453	422.56	422.667	422.774	422.882	422.989	423.096	423.203	423.31	423.417	423.524	423.631	423.739	423.846	423.953	424.06	424.167	424.274	424.381	424.488	424.596	424.703	424.81	424.917	425.024	425.131	425.238	425.345	425.452	425.56	425.667	425.774	425.881	425.988	426.095	426.202	426.309	426.417	426.524	426.631	426.738	426.845	426.952	427.059	427.166	427.273	427.38	427.488	427.595	427.702	427.809	427.916	428.023	428.13	428.237	428.344	428.452	428.559	428.666	428.773	428.88	428.987	429.094	429.201	429.308	429.415	429.522	429.63	429.737	429.844	429.951	430.058	430.165	430.272	430.379	430.486	430.593	430.701	430.808	430.915	431.022	431.129	431.236	431.343	431.45	431.557	431.664	431.771	431.878	431.986	432.093	432.2	432.307	432.414	432.521	432.628	432.735	432.842	432.949	433.056	433.163	433.271	433.378	433.485	433.592	433.699	433.806	433.913	434.02	434.127	434.234	434.341	434.448	434.555	434.662	434.77	434.877	434.984	435.091	435.198	435.305	435.412	435.519	435.626	435.733	435.84	435.947	436.054	436.161	436.268	436.376	436.483	436.59	436.697	436.804	436.911	437.018	437.125	437.232	437.339	437.446	437.553	437.66	437.767	437.874	437.981	438.088	438.195	438.303	438.41	438.517	438.624	438.731	438.838	438.945	439.052	439.159	439.266	439.373	439.48	439.587	439.694	439.801	439.908	440.015	440.122	440.229	440.336	440.443	440.551	440.658	440.765	440.872	440.979	441.086	441.193	441.3	441.407	441.514	441.621	441.728	441.835	441.942	442.049	442.156	442.263	442.37	442.477	442.584	442.691	442.798	442.905	443.012	443.119	443.226	443.333	443.44	443.547	443.654	443.761	443.868	443.976	444.083	444.19	444.297	444.404	444.511	444.618	444.725	444.832	444.939	445.046	445.153	445.26	445.367	445.474	445.581	445.688	445.795	445.902	446.009	446.116	446.223	446.33	446.437	446.544	446.651	446.758	446.865	446.972	447.079	447.186	447.293	447.4	447.507	447.614	447.721	447.828	447.935	448.042	448.149	448.256	448.363	448.47	448.577	448.684	448.791	448.898	449.005	449.112	449.219	449.326	449.433	449.54	449.647	449.754	449.861	449.968	450.075	450.182	450.289	450.396	450.503	450.61	450.717	450.824	450.931	451.038	451.145	451.252	451.359	451.466	451.573	451.68	451.787	451.894	452.001	452.108	452.215	452.322	452.429	452.536	452.642	452.749	452.856	452.963	453.07	453.177	453.284	453.391	453.498	453.605	453.712	453.819	453.926	454.033	454.14	454.247	454.354	454.461	454.568	454.675	454.782	454.889	454.996	455.103	455.21	455.317	455.424	455.531	455.638	455.745	455.852	455.958	456.065	456.172	456.279	456.386	456.493	456.6	456.707	456.814	456.921	457.028	457.135	457.242	457.349	457.456	457.563	457.67	457.777	457.884	457.991	458.098	458.204	458.311	458.418	458.525	458.632	458.739	458.846	458.953	459.06	459.167	459.274	459.381	459.488	459.595	459.702	459.809	459.915	460.022	460.129	460.236	460.343	460.45	460.557	460.664	460.771	460.878	460.985	461.092	461.199	461.306	461.413	461.519	461.626	461.733	461.84	461.947	462.054	462.161	462.268	462.375	462.482	462.589	462.696	462.803	462.909	463.016	463.123	463.23	463.337	463.444	463.551	463.658	463.765	463.872	463.979	464.086	464.192	464.299	464.406	464.513	464.62	464.727	464.834	464.941	465.048	465.155	465.262	465.368	465.475	465.582	465.689	465.796	465.903	466.01	466.117	466.224	466.331	466.437	466.544	466.651	466.758	466.865	466.972	467.079	467.186	467.293	467.399	467.506	467.613	467.72	467.827	467.934	468.041	468.148	468.255	468.361	468.468	468.575	468.682	468.789	468.896	469.003	469.11	469.217	469.323	469.43	469.537	469.644	469.751	469.858	469.965	470.072	470.178	470.285	470.392	470.499	470.606	470.713	470.82	470.927	471.033	471.14	471.247	471.354	471.461	471.568	471.675	471.781	471.888	471.995	472.102	472.209	472.316	472.423	472.53	472.636	472.743	472.85	472.957	473.064	473.171	473.278	473.384	473.491	473.598	473.705	473.812	473.919	474.026	474.132	474.239	474.346	474.453	474.56	474.667	474.773	474.88	474.987	475.094	475.201	475.308	475.415	475.521	475.628	475.735	475.842	475.949	476.056	476.162	476.269	476.376	476.483	476.59	476.697	476.803	476.91	477.017	477.124	477.231	477.338	477.444	477.551	477.658	477.765	477.872	477.979	478.085	478.192	478.299	478.406	478.513	478.62	478.726	478.833	478.94	479.047	479.154	479.26	479.367	479.474	479.581	479.688	479.795	479.901	480.008	480.115	480.222	480.329	480.435	480.542	480.649	480.756	480.863	480.969	481.076	481.183	481.29	481.397	481.503	481.61	481.717	481.824	481.931	482.038	482.144	482.251	482.358	482.465	482.572	482.678	482.785	482.892	482.999	483.105	483.212	483.319	483.426	483.533	483.639	483.746	483.853	483.96	484.067	484.173	484.28	484.387	484.494	484.601	484.707	484.814	484.921	485.028	485.134	485.241	485.348	485.455	485.562	485.668	485.775	485.882	485.989	486.095	486.202	486.309	486.416	486.523	486.629	486.736	486.843	486.95	487.056	487.163	487.27	487.377	487.483	487.59	487.697	487.804	487.911	488.017	488.124	488.231	488.338	488.444	488.551	488.658	488.765	488.871	488.978	489.085	489.192	489.298	489.405	489.512	489.619	489.725	489.832	489.939	490.046	490.152	490.259	490.366	490.473	490.579	490.686	490.793	490.9	491.006	491.113	491.22	491.327	491.433	491.54	491.647	491.754	491.86	491.967	492.074	492.181	492.287	492.394	492.501	492.607	492.714	492.821	492.928	493.034	493.141	493.248	493.355	493.461	493.568	493.675	493.781	493.888	493.995	494.102	494.208	494.315	494.422	494.529	494.635	494.742	494.849	494.955	495.062	495.169	495.276	495.382	495.489	495.596	495.702	495.809	495.916	496.022	496.129	496.236	496.343	496.449	496.556	496.663	496.769	496.876	496.983	497.09	497.196	497.303	497.41	497.516	497.623	497.73	497.836	497.943	498.05	498.157	498.263	498.37	498.477	498.583	498.69	498.797	498.903	499.01	499.117	499.223	499.33	499.437	499.543	499.65	499.757	499.864	499.97	500.077	500.184	500.29	500.397	500.504	500.61	500.717	500.824	500.93	501.037	501.144	501.25	501.357	501.464	501.57	501.677	501.784	501.89	501.997	502.104	502.21	502.317	502.424	502.53	502.637	502.744	502.85	502.957	503.064	503.17	503.277	503.384	503.49	503.597	503.704	503.81	503.917	504.024	504.13	504.237	504.344	504.45	504.557	504.664	504.77	504.877	504.983	505.09	505.197	505.303	505.41	505.517	505.623	505.73	505.837	505.943	506.05	506.157	506.263	506.37	506.476	506.583	506.69	506.796	506.903	507.01	507.116	507.223	507.329	507.436	507.543	507.649	507.756	507.863	507.969	508.076	508.183	508.289	508.396	508.502	508.609	508.716	508.822	508.929	508.976	509.083	509.189	509.296	509.403	509.51	509.617	509.724	509.831	509.938	510.045	510.152	510.259	510.366	510.472	510.579	510.686	510.793	510.9	511.007	511.114	511.221	511.328	511.435	511.542	511.648	511.755	511.862	511.969	512.076	512.183	512.29	512.397	512.504	512.611	512.717	512.824	512.931	513.038	513.145	513.252	513.359	513.466	513.573	513.68	513.786	513.893	514	514.107	514.214	514.321	514.428	514.535	514.642	514.748	514.855	514.962	515.069	515.176	515.283	515.39	515.497	515.604	515.71	515.817	515.924	516.031	516.138	516.245	516.352	516.459	516.566	516.672	516.779	516.886	516.993	517.1	517.207	517.314	517.421	517.527	517.634	517.741	517.848	517.955	518.062	518.169	518.276	518.382	518.489	518.596	518.703	518.81	518.917	519.024	519.131	519.237	519.344	519.451	519.558	519.665	519.772	519.879	519.985	520.092	520.199	520.306	520.413	520.52	520.627	520.734	520.84	520.947	521.054	521.161	521.268	521.375	521.482	521.588	521.695	521.802	521.909	522.016	522.123	522.229	522.336	522.443	522.55	522.657	522.764	522.871	522.977	523.084	523.191	523.298	523.405	523.512	523.619	523.725	523.832	523.939	524.046	524.153	524.26	524.366	524.473	524.58	524.687	524.794	524.901	525.008	525.114	525.221	525.328	525.435	525.542	525.649	525.755	525.862	525.969	526.076	526.183	526.29	526.396	526.503	526.61	526.717	526.824	526.931	527.037	527.144	527.251	527.358	527.465	527.571	527.678	527.785	527.892	527.999	528.106	528.212	528.319	528.426	528.533	528.64	528.747	528.853	528.96	529.067	529.174	529.281	529.387	529.494	529.601	529.708	529.815	529.922	530.028	530.135	530.242	530.349	530.456	530.562	530.669	530.776	530.883	530.99	531.096	531.203	531.31	531.417	531.524	531.63	531.737	531.844	531.951	532.058	532.164	532.271	532.378	532.485	532.592	532.698	532.805	532.912	533.019	533.126	533.232	533.339	533.446	533.553	533.66	533.766	533.873	533.98	534.087	534.194	534.3	534.407	534.514	534.621	534.727	534.834	534.941	535.048	535.155	535.261	535.368	535.475	535.582	535.689	535.795	535.902	536.009	536.116	536.222	536.329	536.436	536.543	536.65	536.756	536.863	536.97	537.077	537.183	537.29	537.397	537.504	537.61	537.717	537.824	537.931	538.038	538.144	538.251	538.358	538.465	538.571	538.678	538.785	538.892	538.998	539.105	539.212	539.319	539.426	539.532	539.639	539.746	539.853	539.959	540.066	540.173	540.28	540.386	540.493	540.6	540.707	540.813	540.92	541.027	541.134	541.24	541.347	541.454	541.561	541.667	541.774	541.881	541.988	542.094	542.201	542.308	542.415	542.521	542.628	542.735	542.842	542.948	543.055	543.162	543.268	543.375	543.482	543.589	543.695	543.802	543.909	544.016	544.122	544.229	544.336	544.443	544.549	544.656	544.763	544.87	544.976	545.083	545.19	545.296	545.403	545.51	545.617	545.723	545.83	545.937	546.043	546.15	546.257	546.364	546.47	546.577	546.684	546.791	546.897	547.004	547.111	547.217	547.324	547.431	547.538	547.644	547.751	547.858	547.964	548.071	548.178	548.284	548.391	548.498	548.605	548.711	548.818	548.925	549.031	549.138	549.245	549.352	549.458	549.565	549.672	549.778	549.885	549.992	550.098	550.205	550.312	550.419	550.525	550.632	550.739	550.845	550.952	551.059	551.165	551.272	551.379	551.485	551.592	551.699	551.806	551.912	552.019	552.126	552.232	552.339	552.446	552.552	552.659	552.766	552.872	552.979	553.086	553.192	553.299	553.406	553.512	553.619	553.726	553.833	553.939	554.046	554.153	554.259	554.366	554.473	554.579	554.686	554.793	554.899	555.006	555.113	555.219	555.326	555.433	555.539	555.646	555.753	555.859	555.966	556.073	556.179	556.286	556.393	556.499	556.606	556.713	556.819	556.926	557.032	557.139	557.246	557.352	557.459	557.566	557.672	557.779	557.886	557.992	558.099	558.206	558.312	558.419	558.526	558.632	558.739	558.846	558.952	559.059	559.165	559.272	559.379	559.485	559.592	559.699	559.805	559.912	560.019	560.125	560.232	560.339	560.445	560.552	560.658	560.765	560.872	560.978	561.085	561.192	561.298	561.405	561.511	561.618	561.725	561.831	561.938	562.045	562.151	562.258	562.364	562.471	562.578	562.684	562.791	562.898	563.004	563.111	563.217	563.324	563.431	563.537	563.644	563.75	563.857	563.964	564.07	564.177	564.284	564.39	564.497	564.603	564.71	564.817	564.923	565.03	565.136	565.243	565.35	565.456	565.563	565.669	565.776	565.883	565.989	566.096	566.202	566.309	566.416	566.522	566.629	566.735	566.842	566.949	567.055	567.162	567.268	567.375	567.482	567.588	567.695	567.801	567.908	568.014	568.121	568.228	568.334	568.441	568.547	568.654	568.761	568.867	568.974	569.08	569.187	569.293	569.4	569.507	569.613	569.72	569.826	569.933	570.039	570.146	570.253	570.359	570.466	570.572	570.679	570.785	570.892	570.999	571.105	571.212	571.318	571.425	571.531	571.638	571.745	571.851	571.958	572.064	572.171	572.277	572.384	572.49	572.597	572.704	572.81	572.917	573.023	573.13	573.236	573.343	573.449	573.556	573.663	573.769	573.876	573.982	574.089	574.195	574.302	574.408	574.515	574.621	574.728	574.835	574.941	575.048	575.154	575.261	575.367	575.474	575.58	575.687	575.793	575.9	576.006	576.113	576.219	576.326	576.433	576.539	576.646	576.752	576.859	576.965	577.072	577.178	577.285	577.391	577.498	577.604	577.711	577.817	577.924	578.03	578.137	578.243	578.35	578.457	578.563	578.67	578.776	578.883	578.989	579.096	579.202	579.309	579.415	579.522	579.628	579.735	579.841	579.948	580.054	580.161	580.267	580.374	580.48	580.587	580.693	580.8	580.906	581.013	581.119	581.226	581.332	581.439	581.545	581.652	581.758	581.865	581.971	582.078	582.184	582.291	582.397	582.504	582.61	582.717	582.823	582.93	583.036	583.143	583.249	583.355	583.462	583.568	583.675	583.781	583.888	583.994	584.101	584.207	584.314	584.42	584.527	584.633	584.74	584.846	584.953	585.059	585.166	585.272	585.379	585.485	585.591	585.698	585.804	585.911	586.017	586.124	586.23	586.337	586.443	586.55	586.656	586.763	586.869	586.975	587.082	587.188	587.295	587.401	587.508	587.614	587.721	587.827	587.934	588.04	588.146	588.253	588.359	588.466	588.572	588.679	588.785	588.892	588.998	589.104	589.211	589.317	589.424	589.53	589.637	589.743	589.85	589.956	590.062	590.169	590.275	590.382	590.488	590.595	590.701	590.807	590.914	591.02	591.127	591.233	591.34	591.446	591.552	591.659	591.765	591.872	591.978	592.085	592.191	592.297	592.404	592.51	592.617	592.723	592.829	592.936	593.042	593.149	593.255	593.362	593.468	593.574	593.681	593.787	593.894	594	594.106	594.213	594.319	594.426	594.532	594.638	594.745	594.851	594.958	595.064	595.17	595.277	595.383	595.49	595.596	595.702	595.809	595.915	596.022	596.128	596.234	596.341	596.447	596.554	596.66	596.766	596.873	596.979	597.085	597.192	597.298	597.405	597.511	597.617	597.724	597.83	597.936	598.043	598.149	598.256	598.362	598.468	598.575	598.681	598.787	598.894	599	599.107	599.213	599.319	599.426	599.532	599.638	599.745	599.851	599.958
1	1439.2	1380.1	1381.44	1383.32	1325.52	1388.82	1574.09	1457.39	1584.17	1467.66	1718.89	1540.85	1856.46	1863.82	1559.11	1815.08	1507.14	1637.66	1452.62	1709.34	1839.88	1716.31	2037.82	1594.85	958.64	1536.78	1860.87	1865.21	1741.03	1616.56	1491.66	1561.33	1762	1963.84	1969.68	1645.95	1782.11	1918.39	1922.1	1593.34	1928.04	1863.91	1732.82	1467.98	1403.05	2944.02	3619.27	2417.64	1750.09	1417.22	1759.73	1968.93	1907.35	1708.83	1646.17	1445.34	1864.46	1801.07	1597.93	1880.9	1885.5	1819.65	2173.86	1896.73	1560.01	1293.32	941.336	658.129	562.609	446.578	582.199	481.627	488.753	465.68	329.944	483.651	438.817	379.855	390.019	509.132	462.747	405.191	403.296	482.161	333.13	423.204	314.598	441.843	412.335	370.201	505.526	450.715	335.339	357.852	393.055	428.516	353.48	374.908	311.611	333.764	369.083	415.631	317.81	360.511	380.869	369.544	336.58	430.483	347.404	354.667	315.137	365.525	372.283	304.683	379.461	345.278	396.356	339.977	337.415	398.09	270.794	383.273	350.448	318.123	347.621	377.206	315.391	304.646	323.705	371.021	336.153	282.401	279.595	269.211	317.3	316.212	342.011	291.576	373.55	353.99	344.565	278.699	332.475	293.07	299.746	261.79	305.782	305.308	296.292	278.131	321.845	284.325	282.488	219.388	243.898	232.718	272.704	363.773	295.61	270.224	268.959	257.851	304.078	284.95	259.007	274.233	249.304	232.129	246.133	259.409	249.67	326.971	249.442	296.385	264.631	271.538	193.539	293.813	269.903	283.694	251.028	218.879	224.861	215.834	295.499	227.631	248.774	262.724	247.15	238.474	243.885	234.609	225.391	230.96	230.704	189.106	259.101	271.934	256.402	248.249	240.801	206.425	268.492	253.991	231.405	215.318	273.459	292.225	271.557	237.362	242.415	221.324	219.964	250.625	261.483	240.52	226.463	263.14	187.487	249.418	186.515	229.217	259.288	252.411	215.008	226.746	262.57	200.601	187.737	211.569	247.48	186.345	226.71	242.719	206.175	217.198	210.067	219.63	206.087	216.262	187.304	226.103	224.686	228.845	172.132	193.291	224.844	185.143	206.096	222.369	271.653	228.246	222.22	199.608	198.654	272.756	234.537	281.565	222.422	227.187	237.397	200.187	199.796	241.202	235.103	213.204	212.056	231.514	266.242	234.311	197.317	230.834	209.195	208.277	203.042	202.881	227.045	196.644	240.083	229.799	238.878	232.701	226.312	234.778	243.665	190.349	184.216	182.569	181.3	208.345	198.494	211.676	178.971	238.13	196.401	191.11	217.636	208.174	162.726	148.756	233.263	205.261	195.535	217.097	207.608	211.254	192.848	231.347	208.797	190.844	198.903	215.335	201.383	149.012	185.879	238.891	183.387	178.896	212.164	195.15	210.694	221.722	200.26	195.694	203.573	191.02	198.501	233.816	200.475	215.562	214.98	198.741	194.523	186.36	158.348	201.272	192.431	152.364	225.856	194.567	217.955	217.7	193.687	196.584	168.99	199.585	169.013	195.77	168.197	205.044	222.642	157.908	202.661	202.246	190.327	193.168	218.237	173.304	224.395	201.777	182.694	214.437	195.212	172.832	204.791	211.677	189.771	192.802	170.904	206.086	209.256	180.419	225.598	210.589	220.056	208.531	224.966	210.612	206.9	185.841	216.052	232.391	191.113	197.968	197.722	203.583	205.57	177.588	223.835	220.245	233.33	226.267	219.156	228.51	224.322	206.868	258.507	245.131	212.452	231.847	224.666	207.513	209.837	231.573	163.606	224.22	243.159	233.176	242.253	232.326	222.651	235.27	234.843	259.22	242.112	209.513	245.934	220.324	219.773	243.954	243.433	227.632	214.89	241.717	243.778	255.227	249.007	243.018	245.737	250.837	228.502	251.282	247.084	245.862	274.298	261.823	258.598	234.804	254.731	236.443	276.668	226.933	290.841	267.275	269.344	259.437	229.912	250.105	279.297	270.463	272.159	270.515	263.397	248.259	315.13	255.649	260.924	296.516	275.471	282.341	276.322	268.56	288.542	257.7	298.004	329.775	298.965	304.214	279.082	267.275	268.968	292.371	288.656	260.707	286.634	326.264	334.293	315.596	320.33	292.379	309.433	308.287	315.572	317.748	314.406	321.179	296.584	324.22	313.279	307.898	351.738	307.293	344.851	317.675	331.609	322.787	339.464	356.061	329.843	371.649	365.633	329.687	361.375	345.913	367.798	337.268	375.9	365.064	386.545	398.103	404.275	327.135	387.139	362.402	379.13	395.368	374.876	417.401	412.106	407.029	406.274	409.412	435.932	434.474	443.783	391.82	462.625	428.345	479.481	443.66	489.927	485.481	478.377	486.125	434.4	482.729	486.627	478.75	491.317	470.906	498.355	499.027	496.361	516.651	524.494	569.842	495.779	517.401	543.622	555.629	625.343	570.299	524.61	609.508	551.964	651.122	572.472	594.936	616.977	608.661	655.552	614.057	641.504	654.88	629.287	665.193	637.678	696.209	705.907	712.262	789.365	711.282	783.404	710.346	777.935	751.893	805.148	805.584	829.245	791.973	869.801	895.15	803.002	857.524	887.878	844.976	874.306	889.87	923.568	924.548	957.22	905.853	979.55	1048.63	986.878	1035.22	1030.68	1015	1084.12	1119.69	1240.83	1103.45	1136.44	1224.26	1244.17	1195.56	1282.11	1302.51	1299.65	1297.75	1393.11	1391.41	1379.88	1430.87	1445.57	1472.48	1418	1489.6	1500.13	1459.72	1563.04	1661.2	1681.67	1695.7	1778.91	1697.06	1698.85	1771.95	1788.58	1835.63	1836.25	1924.36	1936.4	2077.32	2042.14	2052.83	2083.97	2129.51	2186.7	2207.9	2171.91	2316.17	2210.25	2339.71	2380.59	2389.58	2439.18	2466.4	2563.99	2569.37	2730.36	2705.58	2852.82	2797.86	2921.46	3054.3	3028.26	3066.82	3109.96	3058.7	3223.39	3302.29	3338.91	3350	3419	3567.69	3524.46	3794.63	3649.06	3891.07	3785.37	3992.68	4016.86	4157.98	4203.48	4244.26	4251.27	4315.11	4467.42	4718.89	4696.81	4666.19	4682.67	4707.75	4985.95	5217.58	5204.05	5251.02	5394.39	5550.83	5459.91	5606.11	5546.4	5978.75	5981.43	6131.79	6256.18	6320.62	6155.85	6419.21	6480.99	6647.38	6867.1	6664.85	7021.94	7096.19	7123.56	7182.86	7391.31	7693.84	7585.03	7732.52	7983.61	8048.11	8253.51	8184.84	8452.43	8560.18	8824.67	8943.99	8900.74	9015.29	9106.58	9310.74	9270.04	9765.48	9719.12	9828.82	9974.07	10094.8	10277.8	10393.4	10580.5	10752.8	11106.5	11073.5	11206.1	11244.5	11510.5	11709	12055	12149.2	12208.3	12295.5	12535.7	12742.2	12792.5	13092.1	13220.2	13314.5	13486.8	13937.8	13706.8	13973.8	14391.4	14263.5	14568.6	14788.4	15019.6	15328.6	15162.8	15310.4	15450.4	15771.3	15980.5	15830.4	16267.7	16418.9	16618.5	16744.7	16911.3	17530.2	17060.5	17447.6	17578.4	17766.3	17563.3	18163.6	18381.6	18397.5	18864.8	18573.1	18761.2	18941.6	19287.7	19393.3	19433.7	19804.9	19969.2	19869.1	19931	20182.7	20433.1	20711.7	20801.9	21041.2	21240.4	21251.3	21240.8	21613.8	21384.6	21505.8	21454.8	21952	21854.9	22146.9	22137.6	22208.2	22513.8	22879.2	22802.3	22775.2	22989.5	23120.2	23249.3	23340.3	23510.9	23362.6	23616.1	23789.9	23688.2	24023.1	23968.8	24253.9	24224.3	24205.6	24882.8	24569.1	24721.5	24989.5	24903.6	24806.9	25505.5	25523.3	25464.1	25592	25739.9	25815.3	25968.5	26132.2	26122	26313.3	26436.4	26849.4	26681.4	26758	27067.8	26917.8	27159	27543.5	27570.6	27601.5	27801.6	27528.4	27453	27506.4	27778.8	28097.5	28161.7	27955.1	28005.9	28141.8	28151.3	28203.6	28422.3	28358.6	28522.1	28396.7	28287.5	28818.5	28699.9	29095.4	28868.1	28723.9	28783.7	28678.7	29078.8	28929.8	28639	28927.5	28905.5	29016.5	28965.8	28949.2	29173.1	29009.8	28651.1	29009.9	29158	29020.5	28851	29045.2	28883	28875.4	29086.1	29101.7	28910.1	29178.7	28944.9	28790.8	28863.7	28519.2	28689.4	28837.3	28744.6	28451.2	28413.3	28487.1	28523.6	28558.9	28441.6	28463.6	28737	28342.9	28309.9	28522.6	28417.6	28082.5	28091	28310.7	28631.4	28925	28416.2	28114.7	28609.3	28468.1	28505.1	28774.6	28487.8	28339.9	28469.6	28527.5	28377.3	28547.4	28678.9	28432.7	28286.4	28449.7	28595	28449.2	28613.5	28489.4	28251.1	28634.9	28577.9	28610.1	28525.9	28582.3	28388.9	28774.1	28717.6	28884.6	28984.1	28845	28571.4	28824.4	28515.3	28978.1	28872	28878.5	29076.7	29045.3	29240.4	29094	29024.1	29203.5	29220	29386.4	29217.3	29386.3	29419.5	29571.6	29573.8	29714	29679.4	29763.3	29717.8	29783.7	29815.9	29873.6	29886.9	29992.9	29922.5	30096.9	30225.1	30046.9	30029.8	30275.4	30283.3	30370.5	30417.4	30486.5	30721.7	30629.7	30719.8	30499.3	30586.4	30732.8	30847.3	30915.3	30802.7	30817.5	30793.6	30865.2	30966.7	30968.8	31021	30951.1	30796.2	30829.5	30891.2	30860.7	30891.3	30898.1	30795.1	30702.1	30938.8	30946.6	30853.5	30908.5	30798.9	30738.3	30751.6	30446.1	30309.1	30535.9	30427	30661	30206.5	29988.9	29984.5	29663.8	29945.3	29996.7	29618.1	29129.4	29399.3	29135.4	28960.8	28854.5	29149.5	29239.1	28971.5	28637.9	28446.1	27931.7	28121.5	27975.6	27995.4	27830.9	27556.6	27272.2	27362	27321.6	27246.4	26901.3	26623.9	26567.8	26243.5	25999.9	25813.4	26026	25650	25726.5	25075.9	24892.2	24868.2	24941.8	24382.5	24371.9	24150.2	23761.1	23623.7	23661.9	23605.5	23384.8	22916.1	22942.3	22763.7	22465.2	22176.2	22338.1	21903.3	21868.2	21657.8	21292.7	20887.8	21060.8	20793.1	20790.1	20488.9	20020.3	19851.4	19914.1	19914.6	19713.3	19367.6	18957.5	19033.1	18657.8	18773.2	18819	18630.8	18245.1	18105.4	17919.9	17870.1	17675.9	17434.9	17182.2	17100.2	17276.2	17134.7	16904.2	16718	16572	16450.9	16332.7	16105.3	16066.5	15766.2	15580	15649.4	15477.4	15330.1	15180.5	15088.9	14637.9	14715.7	14675.9	14320.7	14374.9	14093.5	14122.8	13832.7	13810.6	13779.5	13609.1	13745.1	13357.6	13414.6	13304.6	13125.1	13120.6	12914.8	12745	12832.8	12768.1	12618.8	12344.8	12489.3	12369.6	12143.1	12127.9	12005.2	12039	11812	11730.3	11763.3	11633.1	11475.2	11476.5	11379.7	11237.6	11119.5	10997.5	11176.9	10981.3	10684.8	10690	10536.6	10583.1	10620.2	10564.9	10434.3	10436.2	10297.3	10239.1	10213.8	10019.7	10081.7	9950.14	9944.35	9857.51	9608.38	9774.32	9762.88	9716.07	9525.69	9583.17	9337.91	9344.91	9334.28	9184.1	9238.14	9252.98	9186.82	9020.56	9054.62	9000.64	8951.74	8917.62	8966.36	8801.94	8646.67	8640.22	8622.63	8510.79	8529.61	8465.59	8439.59	8386.39	8287.81	8286.42	8175.59	8210.67	8076.27	8042.56	8173.66	8001.24	7955.38	7995.42	7951.83	7940.01	7920.52	7852.51	7818.89	7824.02	7708.7	7692.63	7723.73	7648.37	7685.66	7614.54	7614.18	7600.84	7434.26	7415.37	7392.54	7345.21	7279.25	7294.34	7304.47	7251.48	7304.9	7186.14	7160.53	7053.06	7093.62	7099.22	6929.45	7025.79	6940.62	7019.32	6892.28	6905.34	6848.21	6830.36	6823.25	6793.36	6854.26	6792.1	6751.72	6798.52	6669.59	6589.56	6606.78	6571.62	6584.5	6622.48	6538.15	6599.98	6473.62	6392.77	6484.16	6443.89	6506.6	6363.2	6277.32	6319.89	6364.35	6284.68	6379.35	6346.03	6217.53	6299.01	6245.53	6156.43	6160.77	6118.47	6246.72	6174.59	6096.29	6070.13	6091.43	6123.31	6110.06	5971.59	5982.47	6034.89	5937.72	5986.35	5880.74	5928.37	5981.66	5898.75	5825.47	5882.74	5770.69	5826.7	5816.79	5814.65	5895.95	5733.94	5715.57	5693.11	5655.75	5627.29	5647.64	5622.43	5547.17	5574.32	5609.29	5480.65	5516.89	5387.38	5514.04	5617.97	5502.88	5564.37	5358.95	5416.8	5420.11	5328.63	5415.19	5441.85	5324.19	5337.78	5264.98	5274.95	5234.61	5015.08	5142.58	5174.19	5206.85	5146.87	5098.53	5117.03	5038.08	5052.88	4927.52	5014.89	5024.21	4910.48	5073.35	4898.28	4962.58	4977.87	4980.02	4959.76	4917.54	4758.9	4912.75	4820.44	4917.31	4769.18	4828.19	4707.78	4807.46	4671.99	4666.76	4735.87	4708.53	4748.45	4687.03	4625.53	4610.46	4588.13	4545.32	4513.72	4510.29	4587.85	4536.56	4452.43	4458.87	4382.53	4330.17	4334.33	4419.38	4317.95	4372.62	4321	4359.58	4317.42	4210.37	4198.58	4191.6	4146.99	4270.93	4211.44	4171.6	4092.95	4180.86	4108	4169.38	4100.97	4112.26	4058.78	4064.45	3958.68	3996.67	3914.17	3971.71	3921.62	3963.33	3915.82	3949.11	3822.76	3859.47	3877.06	3958.67	3832.32	3788.07	3793.27	3704.97	3648.62	3677.69	3766.36	3691.4	3682.33	3596.42	3657.06	3703.25	3715.25	3545.17	3566.26	3567	3576.11	3592.74	3571.06	3512.04	3468.85	3470.98	3433.27	3464.22	3464.28	3404.28	3355.3	3453.2	3437.88	3353.41	3323.6	3321.14	3329.91	3293.01	3290.46	3189.4	3279.12	3202.51	3209.92	3236.85	3225.02	3167.27	3141.96	3144.04	3092.55	3130.54	3065.3	2995.41	2971.15	3084.3	3108.15	3044.13	3039.53	3080.39	2980.32	2969.53	2932.26	3026.29	2946.84	2879.25	2936.9	2987.94	2971.53	2941.85	2924.47	2882.27	2788.4	2913.01	2851.36	2810.87	2817.22	2798.41	2758.5	2851.15	2757.83	2836.99	2754.28	2740.34	2737.76	2708.64	2725.89	2788.23	2685.5	2711.44	2700.01	2687.98	2684.98	2628.54	2612.42	2657.84	2616.26	2637.87	2654.79	2610.6	2571.05	2600.12	2568.3	2503.21	2566.23	2579.65	2493.82	2526	2494.79	2507.9	2519.33	2537.47	2495.63	2437.65	2488.04	2481.82	2407.22	2429.01	2475.26	2405.92	2373.99	2431.69	2456.79	2390.8	2339.88	2362.71	2369.26	2304.43	2349.98	2246.77	2313.62	2342.42	2298.89	2293.21	2236.29	2236.71	2230.83	2193.44	2286.03	2252.67	2198.84	2234.3	2272.67	2174.5	2241.4	2142.77	2077.23	2204.91	2223.88	2125.88	2118.4	2168.24	2129.76	2128.02	2143.32	2050.85	2100.31	2088.86	2131.37	2152.86	2064.56	2056	2130.76	2088.94	2023.65	2058.37	2041.31	2033.93	2080.7	2112.58	2037.69	2022.09	2003.28	2074.35	2059.99	2043.05	2021.34	1989.2	2023.67	2017.14	1972.28	1975.95	1951.88	1943.63	1973.59	1908.66	1954.25	1921.2	2026.81	1991.28	1957.08	1886.75	1873.46	1924.3	1946.51	1875.87	1911.07	1951.78	1885.79	1889.81	1870.86	1863.36	1892.58	1893.6	1839.12	1860.89	1818.3	1841.26	1845.11	1853.68	1825.3	1785.98	1836.07	1802.5	1854.92	1790.9	1761.93	1840.97	1836.31	1834.25	1837.46	1739.1	1830.66	1771.33	1747.46	1779.17	1823.56	1750.58	1738.82	1773.29	1764.52	1767.29	1752.51	1764.01	1786.5	1777.58	1781.02	1801.99	1745.44	1802.23	1798.54	1798.81	1740.85	1765.83	1757.13	1714.43	1751.57	1762.95	1741.86	1724.17	1770.34	1700.17	1731.02	1712.45	1705.13	1759.42	1705.91	1729.53	1675.47	1743.43	1708.46	1696.12	1646.69	1699.79	1711.36	1621.06	1646.24	1634.97	1684.95	1698.25	1683.16	1701.08	1692.41	1612.26	1667.45	1671.43	1642.38	1713.3	1622.58	1624.48	1637.2	1639	1665.71	1674.65	1641.12	1659	1660.17	1659.68	1623.58	1674.69	1658.23	1621.21	1642.04	1676.67	1655.41	1647.73	1601.02	1637.75	1662.51	1654.22	1664.12	1601.13	1585.89	1671.74	1615.73	1595.16	1626.95	1648.35	1601.87	1532.85	1632.43	1573.13	1685.98	1609.22	1566.42	1600.11	1616.66	1581.15	1573.43	1619.52	1636.58	1609.49	1548.83	1583.67	1547.36	1601.5	1549.36	1581.36	1598.03	1585.55	1602.97	1579.97	1572.6	1587.16	1576.03	1565.69	1548.45	1552.29	1569.85	1540.77	1572.29	1530.91	1489.22	1514.09	1537.77	1490.14	1539.49	1526.6	1506.14	1510.66	1556.46	1500.32	1473.93	1450.98	1519.28	1529.89	1476.81	1448.41	1532.78	1444.53	1468.73	1506.9	1444.53	1430.92	1482.4	1496.44	1484.22	1459.38	1474.23	1439.6	1455.27	1446.54	1440.87	1450.16	1469.95	1458.99	1454.67	1437.14	1421.23	1418.62	1424.07	1436.38	1373.25	1425.31	1429.13	1466.56	1407.63	1356.7	1408.16	1374.51	1404.18	1397.93	1409.46	1405.24	1367.47	1393.52	1358.94	1370.74	1355.07	1351.5	1412.58	1365.63	1396.02	1369.29	1349.96	1383.09	1328.82	1384.64	1323.98	1335.98	1323.9	1304.89	1335.02	1331.92	1334.77	1308.89	1302.99	1321.73	1344.72	1271.87	1331.76	1299.59	1293.56	1291	1290.44	1268.76	1280.38	1252.41	1238.27	1270.5	1310.58	1297.69	1250.12	1259.63	1246.5	1254.45	1211.32	1241	1257.81	1207.02	1233.96	1200.83	1210.5	1198.05	1208.09	1208.47	1213.28	1204.15	1210.19	1176.49	1211.2	1188.25	1140.25	1161.52	1144.99	1158.74	1148.27	1188.01
2	1439.2	1620.12	1441.51	1383.32	1506.27	1630.36	1453.01	1335.94	1096.73	1345.35	1473.33	1664.12	1732.69	1615.31	1309.65	1502.14	1444.34	1763.64	1515.77	1139.56	1522.66	1462.04	1719.41	1467.26	1661.64	1408.72	1283.36	1800.89	1547.58	1875.21	1556.51	1366.16	1566.22	1440.15	1969.68	1316.76	1782.11	1521.48	1259.31	1792.51	1994.52	1397.93	1466.23	1668.16	1937.55	2810.2	3016.05	2350.48	1548.15	1417.22	1285.96	1493.67	1771.11	1503.77	1714.76	1720.64	1795.41	1246.89	1458.98	1602.25	1536.33	1399.73	1472.61	1966.98	1500.01	1043	798.709	573.209	474.702	430.629	367.704	376.271	488.753	378.365	315.598	341.401	382.195	351.718	320.373	357.769	326.645	405.191	309.193	401.801	413.081	357.078	301.49	350.875	438.106	280.842	303.315	325.517	322.919	370.192	331.641	293.84	390.047	266.064	311.611	345.684	345.271	332.505	282.498	232.588	323.161	288.706	359.792	325.771	301.083	308.904	371.411	332.296	339.435	293.802	260.202	291.329	289.233	244.359	305.782	251.425	218.718	290.045	309.219	307.861	122.69	275.258	274.696	294.491	263.011	300.828	247.171	262.925	279.595	269.211	259.609	268.301	256.508	310.387	252.147	176.995	260.752	278.699	258.591	238.119	263.413	279.845	242.827	233.471	224.464	251.215	214.563	222.129	273.66	254.49	174.213	249.956	230.094	270.715	261.826	219.557	226.934	257.851	230.113	260.526	234.725	209.708	257.346	200.111	158.795	212.243	195.054	210.196	210.466	226.189	217.931	256.021	224.505	177.834	208.211	237.689	235.814	203.784	179.889	230.719	177.299	205.602	160.971	204.341	196.266	166.209	193.673	206.171	197.217	195.966	195.749	175.098	252.099	174.317	152.455	199.978	206.401	178.901	172.111	199.074	204.181	161.488	193.423	199.244	185.454	197.802	203.104	195.286	207.025	192.788	172.196	158.237	94.3594	175.427	156.239	212.005	167.863	167.267	148.165	166.222	129.005	202.233	189.294	194.522	193.793	181.345	138.83	174.323	149.151	165.759	159.049	135.015	180.891	138.714	177.464	159.351	170.277	135.662	129.194	167.448	155.474	154.633	153.552	157.916	151.86	162.709	184.724	157.599	178.86	140.265	155.702	155.096	143.921	148.751	185.352	163.786	179.366	131.702	136.703	162.549	146.286	150.803	139.647	159.487	133.121	132.436	166.961	150.544	159.387	163.646	118.854	123.708	148.073	157.315	181.287	151.57	156.002	145.438	154.085	148.533	148.11	142.762	146.428	149.8	144.11	111.117	161.565	147.253	146.848	151.121	146.159	145.608	95.2158	140.291	158.206	157.771	125.603	147.252	142.207	168.361	159.019	158.441	131.487	139.681	108.748	147.471	142.691	133.507	154.251	127.725	126.736	117.35	137.54	162.254	162.243	137.02	136.331	114.967	122.608	126.386	126.215	121.928	153.939	96.7514	144.342	131.732	131.377	143.093	131.005	111.023	154.39	118.395	145.305	144.55	140.187	124.523	124.546	124.4	139.454	150.329	119.061	145.85	122.919	126.675	114.68	136.696	135.849	131.59	138.86	104.869	134.349	130.017	125.764	132.744	117.716	139.409	116.924	123.574	130.141	129.624	129.341	129.159	132.482	135.676	117.496	138.575	113.495	141.505	133.949	122.844	122.253	142.496	128.058	120.843	120.692	130.777	137.176	126.448	119.446	126.29	129.542	125.543	158.39	120.626	130.292	116.797	139.998	113.133	132.822	142.405	135.253	121.494	160.34	140.542	114.397	140.414	94.425	145.908	116.217	115.786	147.566	124.922	134.377	153.321	124.314	114.572	136.772	152.607	123.768	142.255	141.494	118.829	136.976	164.467	136.197	129.697	150.99	135.349	147.353	128.508	131.03	145.844	109.32	136.697	160.791	148.085	126.278	137.607	151.823	151.072	144.522	126.499	164.562	135.013	120.046	148.871	148.527	130.923	157.054	136.543	173.77	141.249	146.569	140.864	164.123	158.25	151.836	130.986	138.779	152.341	151.938	151.704	151.504	137.069	164.169	163.315	163.03	149.508	149.82	152.403	146.243	178.628	156.34	153.477	131.333	174.547	163.011	154.307	172.654	166.637	150.014	176.503	155.112	173.845	149.487	164.795	156.039	147.556	165.675	154.935	146.723	161.895	158.699	158.219	170.879	147.48	142.247	131.697	144.117	174.209	178.559	172.831	162.132	146.465	153.591	185.825	147.756	167.341	196.887	171.712	178.929	148.795	150.854	180.065	182.193	211.339	171.511	190.422	189.917	192.146	179.844	174.641	181.392	171.303	202.438	190.268	163.471	179.567	150.075	189.934	182.734	163.852	189.795	177.491	188.958	198.231	179.012	189.971	196.018	169.795	176.547	169.419	201.602	185.024	209.905	197.551	189.741	189.129	214.027	207.116	208.889	210.299	220.847	222.707	229.13	224.044	223.337	207.179	215.623	199.475	200.915	228.773	210.565	220.914	226.733	249.986	221.412	251.698	238.397	257.197	228.44	228.189	224.049	254.342	204.455	268.171	220.338	237.094	249.75	249.581	242.971	253.471	264.123	302.627	257.94	287.409	273.669	234.344	271.171	259.983	276.415	284.448	285.871	293.158	279.555	286.858	300.546	310.167	297.144	275.955	283.422	313.21	302.306	320.099	314.09	308.321	326.426	337.502	343.948	342.633	340.046	351.871	357.473	384.379	394.855	401.591	377.424	367.618	357.82	375.506	410.763	396.211	430.113	389.015	446.144	406.777	389.3	406.546	415.563	445.728	425.392	433.907	513.695	418.964	526.391	445.001	525.461	496.302	503.995	567.573	576.716	526.899	538.892	509.354	543.863	555.718	557.904	602.763	564.162	572.424	608.557	611.244	626.85	679.687	679.679	703.583	671.098	683.726	702.232	683.922	774.782	733.325	723.193	819.645	804.332	805.494	797.261	834.13	846.863	850.536	854.75	918.896	941.65	956.705	978.318	942.857	999.537	962.824	1021.2	1051.1	1074.9	1024.66	1108.95	1108.94	1145.67	1205.39	1182.14	1278.67	1235.61	1253.65	1263.58	1343.37	1248.97	1355.1	1356.88	1393.38	1416.89	1422.03	1461.51	1493.82	1520.91	1593.05	1602.95	1654.04	1632.13	1699.86	1597.51	1789.42	1777.45	1798.78	1796.7	1911.29	1955.85	1933.78	2019.65	2016.7	2089.17	2105.05	2163.77	2114.31	2243.35	2321.35	2313.38	2364.99	2404.61	2507.58	2383.86	2566.77	2673.92	2593.41	2627.23	2755.69	2747.68	2746.17	2852.81	2940.11	2947.6	3063.28	3071.5	3097.39	3280.45	3276.05	3265.22	3390.86	3466.21	3520.85	3558.2	3587.11	3751.18	3664.15	3874.62	3939.5	3900.06	3972.99	4056.32	4123.59	4113.24	4253.5	4179.84	4345.12	4423.81	4505.1	4686.85	4724.77	4714.98	4845.72	4861.17	4917.06	5012.01	5134.92	5209.45	5174.21	5356.85	5426.75	5480.3	5490.57	5568.2	5685.51	5676.41	5862.07	5969.25	6007.91	5959.23	6034.41	6117.93	6304.53	6355.33	6239.56	6406.28	6605.67	6718.4	6854.58	6830.33	6890.8	6976.4	6971.01	7078.2	7109.04	7234.01	7407.62	7284.29	7404.3	7356.32	7333.32	7567.37	7838.2	7735.78	7868.22	7977.87	7843.29	7946.42	7843.54	8127.63	8145.15	8156.98	8332.63	8396.49	8403.77	8653	8667.29	8523.61	8572.14	8755.2	8712.44	8731.61	8764.47	8803.04	8690.21	8978.24	8844.95	9186.99	9044.32	9047.37	9171.2	9096.74	9181.28	9185.42	9286.53	9357.97	9374.54	9339.47	9381.16	9530.48	9443.6	9505.71	9333.55	9481.31	9565.38	9584.14	9460.7	9569.08	9557.45	9493.73	9735.37	9636.9	9719.84	9806.85	9709.29	9812.09	9711.16	9585.2	9792.4	9767.67	9666	9683.02	9679.23	9625.11	9420.41	9725.43	9737.76	9661.25	9703.3	9712.08	9681.67	9733.2	9867.14	9694.53	9745.26	9741.57	9810.27	9676.86	9620.18	9658.36	9551.93	9579.51	9622.51	9624.75	9554.21	9497.55	9581.36	9425.12	9501.04	9404.5	9467.96	9298.21	9496.19	9408.88	9154.07	9200.26	9469.95	9547.79	9388.68	9492.52	9415.17	9246.65	9247.3	9230.16	9110.09	9103.25	9258.49	9307.72	9171.62	9182.91	9018.96	9184.67	9273.54	9246.24	9218.08	9054.68	9272.63	9052.27	9053.96	9132.74	9065.69	8949.92	8995.41	8953.2	9048.09	9084.72	8856.26	9010.01	9012.39	8824.05	8744.6	8964.55	9033.52	8954.51	8923.34	8747.92	8770.85	8788.46	8862.17	8699.36	8721.26	8699.09	8495.01	8732.89	8670.63	8592.33	8462.02	8361.38	8432.36	8538.04	8535.22	8397.77	8423.55	8380.74	8391.89	8304.77	8411.2	8222.44	8247.82	8247.55	8258.02	8132.49	8174.68	8119	8134.34	8127.35	8082.18	8071.19	8037.13	8120.69	8033.27	7988.97	8020.13	7999.63	7958.63	7968.49	7979.93	7924.85	7922.78	7955.33	7934.05	7888.23	7930.22	7905.39	7912.91	7842.38	7810.01	7773.2	7886.78	7860.34	7833.31	7872.28	7778.7	7667.83	7710.62	7718.59	7715.27	7671.75	7624.19	7654.44	7628.58	7596.04	7612.84	7657.79	7613.63	7544.27	7508.88	7616.49	7573.24	7496.22	7497.68	7490.87	7459.61	7443.35	7460.74	7434.38	7423.96	7438.78	7374.12	7361.65	7314.93	7365.11	7451.57	7299.01	7239.98	7235.54	7124.41	7118.72	7205.99	7239.02	7139.45	6985.59	7041.67	6807.19	7026.59	6892.83	6762.78	6847.19	6919.16	6688.94	6778.8	6766.3	6708.35	6648.08	6705.56	6733.41	6586.91	6420.41	6582.56	6566.53	6431.06	6391.77	6416.78	6426.85	6418.02	6281.41	6293.38	6244.86	6288.3	6241.03	6308.81	6094.07	6168.38	6149.22	6070.87	6025.12	5951.18	5956.37	6053.8	5940.3	5972.43	5863.58	5752.14	5799.55	5739.66	5727.61	5732.04	5774.26	5632.73	5705.44	5627.81	5707	5586.75	5561.23	5460.75	5395.26	5541.11	5455.97	5538.62	5397.71	5492.47	5355.39	5362.3	5338.12	5398.52	5350.4	5243.2	5220.58	5249.21	5202.48	5187.61	5175.96	5225.08	5122.32	5131.33	5094.8	5037.7	5125.55	5017.97	5074.62	5054.6	5086.13	5011.91	5054.14	4971.46	5008.22	4963.27	4874.59	4897.15	4850.99	4935.46	4859.58	4781.29	4786.77	4765.15	4771.09	4695.52	4725.07	4692.9	4681.05	4687.08	4679.07	4599.63	4471.71	4577.21	4663.88	4543.92	4591.95	4495.79	4560.77	4378.87	4521.47	4452.17	4462.79	4432.32	4342.53	4399.86	4329.47	4357.17	4323.73	4255.29	4313.5	4302.33	4286.03	4204.3	4117.73	4152.69	4104.51	4213.44	4079.35	4206.61	4081.11	3994.74	3970.71	4107.7	4071.41	4042.9	3997.04	3831.82	3899.97	3973.07	3911.17	3952.51	3837.68	3934.18	3945.71	3876.21	3776.81	3750.78	3849.82	3881.17	3734.4	3643.9	3715.65	3757.32	3653.83	3640.41	3675.51	3614.36	3593.24	3601.47	3591.36	3534.08	3547.88	3590.15	3479.62	3481.53	3411.63	3553.11	3449.65	3432.85	3300.12	3413.24	3368.17	3391.8	3375.49	3409.77	3330.15	3381.59	3303.04	3310.68	3288.65	3277.27	3322.15	3235.18	3308.43	3317.91	3234.08	3176.44	3108.03	3236.88	3199.03	3144.28	3116.75	3096.62	3112.4	3063.98	3089.61	3077.26	3115.45	2963.34	3093.9	3097.68	2963.54	3030.25	3004.14	3024.47	3074.66	2886.75	2948.76	2951.97	2926.26	2936.44	2913.14	2996.44	2931.62	2926.58	2829.52	2828.69	2811.47	2879.54	2847.57	2782.62	2838.55	2830.13	2801.68	2806.52	2825.51	2673.85	2680.3	2705.74	2719.42	2674.4	2710.27	2750.89	2734.73	2636.43	2729.43	2649.1	2652.37	2685.37	2707.06	2584.97	2612.04	2537.06	2617.76	2558.11	2522.4	2593.63	2592.18	2513.48	2496.24	2520.52	2498.52	2448.17	2481.97	2486.51	2510.94	2497.71	2500.02	2500.05	2472.12	2486.48	2507.9	2392.23	2429.53	2397.13	2365.01	2373.72	2384.9	2390.61	2377.76	2324.69	2375.88	2313.33	2360.4	2287.8	2300.03	2301.93	2318.6	2327.97	2251.02	2296.61	2319.09	2236.85	2271.57	2202.29	2200.4	2198.06	2166.36	2204.91	2197.28	2170.49	2201.55	2118.55	2193.04	2133.09	2138.29	2162.52	2106.74	2124.24	2148.39	2113.04	2084.25	2070.3	2062.91	2155.74	1995.74	2088.39	2028.49	2064.95	2063.38	2062.84	2006.11	1941.48	1999.51	2009.86	1987.13	2002.48	2007.27	1954.45	1943.94	1964.15	1950.6	1991.38	1941.22	1923.52	1908.95	1917.73	1879.41	1873.74	1922.78	1913.41	1941.49	1905.69	1895.98	1881.69	1863.86	1910.37	1855	1784.49	1796.69	1829.17	1840.51	1875.25	1828.5	1795.42	1784.86	1776.49	1810.78	1812.87	1802.21	1807	1822.66	1698.47	1775.18	1767.78	1812.15	1756.77	1741.45	1769.55	1679.78	1691.71	1758.43	1708.52	1744.77	1720.98	1718.73	1692.33	1751.41	1644.03	1691.92	1676.91	1687.92	1622.37	1599.36	1620.49	1624.97	1602.12	1636.84	1598.74	1651.68	1618.95	1594.35	1568.67	1634.09	1521.74	1547.97	1552.99	1596.19	1616.17	1567.29	1484.81	1513.31	1586.53	1551.33	1557.73	1564.34	1530.13	1536.44	1546.88	1523.79	1504.41	1494.21	1521.28	1498.33	1495.63	1509.63	1483.69	1479.11	1499.27	1526.61	1492.19	1477	1487.58	1475.03	1436.22	1446.5	1429.18	1457.66	1485.72	1462.21	1449.37	1490	1425.32	1457.75	1437.17	1398.75	1373.39	1443.58	1437.52	1446.32	1435.94	1423.41	1370.56	1389.16	1394.81	1408.17	1432.51	1365.58	1366.7	1368.16	1363.25	1356.44	1360.44	1365.3	1328.43	1335.65	1373.92	1292.21	1316.82	1345.52	1305.75	1319.39	1305.09	1316.67	1327.51	1262.89	1289.45	1303.27	1286.25	1314.16	1311.85	1279.26	1250.36	1284.09	1246.69	1236.08	1230.7	1252.42	1217.09	1220.27	1209.45	1175.36	1234.47	1245.2	1248.73	1209.34	1232	1162.79	1253.78	1224.29	1204.54	1234.65	1228.47	1181.53	1214.11	1171.88	1163.99	1173.78	1189.51	1145.48	1182.9	1173.55	1168.67	1134.78	1165.72	1154.54	1155.92	1116.6	1111.34	1126.44	1075.43	1096.04	1108.03	1152.59	1118.2	1095.45	1107.8	1103.95	1078.93	1102.08	1088.52	1135.3	1106.66	1062.7	1065.51	1059.13	1093.03	1061.43	1111.37	1063.25	1075.52	1069.04	1061.66	1019.87	1041.21	1030.18	1068.67	1028.88	1041.38	1014.11	1048.84	1013.78	1053.8	1029.73	1007.61	992.495	1028.86	1036.79	1040.76	1014.87	1010.04	1018.29	939.121	963.748	995.711	963.261	973.965	1003.99	973.857	968.088	947.918	975.996	956.92	962.138	991.315	955.291	955.498	943.468	981.483	941.294	949.08	938.108	954.398	947.528	971.778	952.515	967.503	946.448	944.4	930.8	925.095	915.949	937.904	933.893	911.419	922.157	925.322	894.039	885.668	905.504	910.203	875.348	898.52	892.24	870.365	886.545	886.966	899.525	899.555	886.311	890.784	857.748	882.88	852.993	881.208	844.147	841.984	883.075	836.929	834.778	853.589	877.721	823.849	833.893	876.126	855.116	846.725	838.76	807.364	854.435	898.471	819.219	818.777	862.679	815.453	870.968	833.029	835.717	790.417	830.585	840.96	840.451	830.042	804.071	848.829	845.965	815.072	798.41	796.014	815.129	806.141	817.584	816.365	783.821	809.087	804.672	785.105	810.786	815.102	805.81	787.246	803.844	821.05	797.657	803.378	778.529	772.19	770.809	728.958	748.917	798.076	776.459	769.257	764.051	749.146	727.702	769.733	767.337	739.484	729.255	742.114	750.333	735.745	739.201	723.766	748.726	742.88	717.222	710.266	755.534	742.513	699.906	705.465	689.913	741.146	706.115	713.453	719.03	709.065	725.964	711.52	690.657	693.915	718.537	672.495	698.846	680.154	688.639	687.36	642.187	690.255	701.733	710.718	681.102	703.658	693.555	669.604	686.692	685.705	640.945	676.586	660.58	651.961	686.528	672.261	641.182	675.832	660.736	672.005	638.371	674.86	641.273	661.721	637.43	653.512	640.27	629.769	641.889	650.99	654.42	639.247	638.58	641.798	638.006	659.287	641.504	630.075	635.674	611.365	649.955	618.237	612.521	638.025	638.278	632.348	592.947	596.685	616.188	618.233	605.257	612.123	583.828	622.159	623.437	617.699	629.732	618.931	595.388	608.308	605.042	617.121	606.464	597.96	574.881	596.595	582.42	602.039	588.844	590.723	586.851	588.311	579.952	600.247	607.64	604.956	572.761	587.753	580.876	567.121	608.11	559.66	567.647	613.967	572.293	563.929	577.909	571.149	610.4	568.276	553.276	564.444	607.901	532.121	538.001	557.97	566.999	546.111	576.618	553.764	543.079	571.232	535.896	567.489	551.877	542.748	545.231	556.138	564.74	554.485	542.422	535.052	548.836	539.113	545.775	541.622	556.544	540.623	546.939	531.929	575.032	536.612	511.038	527.406	537.549	538.136	546.678	541.536	514.754	537.478	520.784	526.351	506.559	502.198	514.696	515.21	512.527	512.493	524.868	508.887	521.308	497.262	526.22	520.317	509.356	501.922	491.335	481.447	513.816	510.154	463.967	492.881	473.737	476.113	477.605
3	1439.2	1500.11	1381.44	1744.18	1265.27	1086.9	1150.3	1639.57	913.943	1345.35	1534.72	1417.58	1299.52	1242.54	1621.48	1189.19	1507.14	1322.73	1073.67	1709.34	1395.77	1271.34	1464.68	1467.26	1342.1	1664.85	1411.69	1800.89	1676.55	1551.9	1686.22	1431.21	1631.48	1767.46	1641.4	1514.27	1386.08	1719.93	1524.43	1659.73	1329.68	1863.91	1532.88	2068.51	1403.05	2208.02	2814.98	1880.39	1682.78	1552.19	1489	1629.46	1702.99	1913.9	1371.81	1582.99	1657.3	1870.34	1667.41	1602.25	1676	1609.69	1542.74	1826.48	1260	917.841	713.133	488.289	421.957	287.086	383.025	421.424	414.699	378.365	372.98	284.501	353.884	478.336	376.09	288.967	340.255	391.685	389.853	294.654	333.13	290.953	393.248	311.889	283.481	331.905	366.506	363.076	335.339	333.173	343.923	318.326	316.913	338.627	263.671	262.243	357.177	368.13	294.269	313.993	403.952	300.255	313.368	314.136	335.823	274.581	258.863	299.066	273.737	261.157	271.043	258.959	257.096	244.359	231.973	240.949	270.794	248.61	267.99	225.765	276.052	295.648	264.522	314.801	313.59	220.607	276.832	301.877	260.313	211.523	269.224	268.301	237.508	263.359	270.824	242.204	214.189	269.409	230.885	219.802	263.413	189.572	242.827	215.511	188.549	305.047	196.683	302.095	220.694	201.837	235.188	181.003	204.528	262.255	211.15	219.557	243.744	232.898	205.458	203.536	291.383	169.379	233.22	208.116	190.554	212.243	195.054	225.766	194.876	210.589	217.931	209.472	201.28	231.958	200.499	153.348	205.386	173.594	194.879	178.621	214.237	168.887	197.555	197.043	196.266	202.341	179.327	163.515	204.261	202.964	202.74	210.118	203.079	209.18	207.894	165.499	206.401	172.021	158.342	185.345	190.569	188.403	166.744	192.603	172.207	191.208	150.69	188.777	148.799	173.509	172.196	196.213	163.556	181.692	193.737	187.063	186.515	179.657	179.032	172.378	153.577	165.463	183.188	188.443	175.625	157.166	193.155	156.29	167.049	159.839	164.94	193.717	163.385	156.053	143.116	153.66	164.601	186.535	190.983	173.029	199.896	165.678	153.552	136.135	162.708	135.591	173.858	168.468	178.86	113.291	166.44	149.748	213.216	159.376	148.281	147.936	152.989	147.506	152.476	141.575	177.634	166.403	139.647	169.777	133.121	188.467	126.485	160.58	179.31	168.605	158.472	163.295	182.623	127.819	156.789	151.57	180.377	140.59	158.9	129.368	171.999	147.52	136.981	163.844	148.759	134.267	133.868	151.855	156.026	160.28	159.861	122.856	104.284	149.342	122.045	148.756	161.49	151.715	155.539	141.778	172.271	101.226	122.721	122.221	147.898	156.145	134.043	116.281	158.536	149.012	126.736	121.541	129.204	137.292	141.443	120.411	140.463	102.649	147.13	150.847	166.93	134.121	121.531	141.096	144.342	115.765	123.415	155.018	131.005	122.918	146.472	146.021	137.451	105.482	112.928	136.197	144.006	132.175	123.96	134.91	149.786	111.307	138.284	153.545	133.793	136.696	143.396	120.311	146.366	123.595	111.957	115.158	133.162	147.493	150.823	124.735	109.617	119.939	119.296	129.624	143.713	129.159	150.385	121.394	103.254	135.022	138.322	134.43	112.799	115.824	132.732	139.021	124.597	127.748	124.14	130.777	130.317	126.448	143.335	109.224	136.36	145.901	134.8	127.327	157.019	183.538	133.332	109.806	132.822	112.599	141.85	134.629	114.529	147.079	127.471	133.883	113.961	136.181	142.043	147.949	128.318	144.141	124.779	140.544	140.252	120.937	136.772	136.711	145.983	139.094	125.772	140.718	136.976	148.951	154.77	138.961	160.234	119.968	135.074	134.627	158.455	157.997	130.577	136.697	145.622	123.908	168.37	167.522	157.777	154.034	162.219	158.859	126.36	146.753	161.037	163.466	177.65	133.832	171.596	159.784	153.497	144.132	140.821	140.864	146.847	103.582	160.431	142.376	158.605	160.804	137.869	137.657	143.087	165.042	155.822	188.227	168.556	130.127	160.918	169.029	165.558	167.635	153.597	172.662	142.277	152.729	173.878	178.671	169.956	166.637	160.729	165.806	165.81	149.774	149.487	194.033	166.618	163.366	149.897	165.439	170.303	177.562	176.91	176.376	181.236	160.417	181.042	154.938	172.425	199.828	160.703	162.664	164.665	174.243	163.662	170.758	167.791	199.81	164.488	194.109	188.869	173.594	202.788	184.999	184.655	189.222	196.012	192.863	197.222	172.688	184.704	181.918	171.718	224.383	197.618	197.493	250.014	203.509	204.864	192.308	206.466	220.844	211.147	194.057	222.025	207.671	204.921	201.698	214.686	195.38	211.392	243.685	208.554	212.778	239.892	225.116	237.747	218.751	202.643	220.772	247.489	235.173	229.861	254.201	260.579	246.448	230.037	229.456	260.082	254.885	258.319	261.769	234.692	247.161	255.075	241.291	269.167	251.698	257.902	246.391	267.232	307.84	292.987	303.918	284.085	311.078	288.792	299.038	283.904	315.71	298.386	315.241	310.983	326.07	351.736	344.891	318.22	339.904	317.417	291.432	349.707	376.475	325.517	322.266	329.254	367.343	325.249	365.628	370.917	376.116	405.762	398.63	373.317	393.033	378.935	393.515	423.746	406.215	422.392	414.766	452.061	471.826	461.32	416.244	486.129	458.961	503.891	502.015	488.296	505.945	495.68	524.338	528.313	475.029	500.694	544.964	580.056	573.833	594.216	608.516	609.083	609.399	600.273	653.43	668.555	638.73	659.214	675.047	704.834	684.871	726.095	779.962	787.612	740.537	772.66	793.348	839.656	794.383	779.434	879.94	860.119	910.403	896.026	900.724	922.816	944.864	950.569	936.686	987.514	1011.25	1036.71	1127.49	1085.7	1133.63	1148.27	1193.73	1166.06	1234.08	1174.1	1265.91	1295.62	1280.34	1411.58	1319.72	1344.3	1460.71	1505.56	1419.18	1489.78	1563.26	1535.82	1640.88	1694.48	1705.11	1681.27	1732.86	1707.93	1811.6	1832.35	1876.09	1883.97	1902.08	2039.64	2109.49	2019.63	2089.19	2142.78	2172.3	2276.74	2232.04	2317.74	2404.28	2374.17	2530.32	2577.59	2553.23	2623.63	2619.91	2743.08	2789.38	2740.1	2917.77	2975.19	3036.63	2928.15	3088.34	3219.68	3191.2	3224.67	3386.91	3406.88	3518.76	3440.93	3554.13	3651.02	3738.88	3801.51	3896.7	3853.29	4026.09	4088.65	4202.55	4303.54	4489.05	4423.92	4412.64	4631.71	4669.1	4877.48	4976.24	5136.2	5173.66	5133.17	5384.14	5351.97	5556.5	5398.21	5666.49	5762.47	5780.07	5986.73	5975.24	6134.41	6306.45	6304.49	6430.12	6597.83	6704.18	6870.99	6926.93	6980.01	7215.51	7336.84	7356	7559.87	7563.4	7851.19	7991.81	8004.35	8095.79	8299.75	8302.73	8476.94	8679.66	8704.65	8788.06	8959.86	9063.67	9408.68	9385.54	9584.68	9638.4	9776.67	9965.05	10082.8	10114.7	10322.4	10464.6	10503.2	10702.8	10831.1	10853.3	11208.9	11243.3	11624.3	11556	11831.4	11812.6	12034.5	12331.4	12316.9	12667.6	12730.1	12685.2	13098.9	12946.4	13180.1	13073	13444.2	13583.7	13658.8	13758.5	13996.6	14048.3	14213.3	14428.1	14570.4	14833.2	14807.2	15016.2	15095.1	15386.8	15574.9	15694.2	15654.9	15808.1	16200.9	15891.6	16254.3	16305.6	16532.8	16479.3	16745	16928.1	16901.2	17169.1	17248.6	17289.1	17605.5	17516.6	17703.5	17732.6	17937.5	18043.9	18216.7	18253.5	18472.9	18322.7	18277.7	18489.2	18628.9	18810.9	18843.7	18833.6	19027.8	18891.2	19264.8	19182.4	19055	19291	19309.7	19260.5	18897.8	19339	19057.3	19240.3	19122.4	19076.8	19359.3	19420.1	19341.9	19341.7	19478	19548.2	19389.2	19488	19435.8	19456.1	19392.3	19381.2	19344.1	19461.8	19488.6	19624.7	19743.7	19671.2	19740.2	19726.7	19722.5	19652.5	19868	19781	19962.8	19904.8	19668	19888.8	19931.1	19889.8	20024	20169.3	19892.7	20031.1	20365.5	20302.2	20188.2	20043.3	19998.5	20158.1	20125.5	20488.2	20488.9	20233.1	20340.5	20341.5	20332.3	20470.9	20611.8	20449.1	20210.6	20404	20397.6	20367.5	20321.4	20516.2	20339.5	20414.9	20404.4	20187.6	20112.1	20321.8	20260.9	20172.2	20257.3	20047.8	20239.7	20283	20191.6	20103.2	19928	20171	19934.4	20126.3	20017.6	19946.4	19940.5	19788.7	19687.6	19647.4	19686.8	19666.1	19563.8	19415.8	19455.1	19497.8	19485.7	19426.5	19264.5	19436.4	19301.3	19326.4	19385.8	19244.2	18998.5	19084.6	19203.7	19101.5	18964.7	18992.1	18821.1	18878.5	18932.7	19027.9	18756.1	18890.5	18781.7	18659.9	18761.7	18933.5	18779.3	18889.7	18750.6	18827.6	18826.6	18676.5	18863.5	18753	18716.4	18690.9	18692.4	18718.2	18783.2	18684.3	18743.1	18601.1	18735.6	18811	18472.2	18612.3	18689	18522.9	18538.7	18508.3	18593	18633.1	18648.5	18595.1	18547.1	18445.9	18394.7	18348.2	18393	18532.7	18581.2	18566.9	18398.9	18321.9	18334.6	18164	18069.3	18118.4	18150.8	18255.9	18298	18072.8	18015.9	18101.3	18190.3	18053.6	17943.2	17847.2	17717.9	17915.5	17684.9	17683.3	17376.9	17675	17433.1	17279.7	17313.6	17051.4	16889.2	16882.7	16859.2	16580.1	16549.4	16507.8	16554.2	16244.5	16272	16278.3	15929.3	15956.7	15832.6	15746.4	15952.2	15549.8	15769	15556	15434.8	15362.5	15252.4	15293.4	15021	14932.3	14969	14754.8	14760.7	14845.1	14475.6	14467.1	14359.1	14244.2	14149	14111.4	14081.1	13872.3	13899.6	13723.4	13606.4	13499.7	13392.7	13104.3	13230.7	13333.9	12979.4	12890.8	12864.4	12862.9	12797.3	12433.2	12590.1	12232.4	12243.9	12242.9	12064.8	11879.5	12080.2	11915.1	11601.5	11792.6	11552.5	11635	11508.1	11453.3	11429.7	11128.7	11127.1	11103.9	11001	11002.8	10723.4	10921.9	10874.8	10729.1	10617.9	10340.1	10406.6	10435.3	10377.4	10305.2	10313.3	10184.5	10221.1	10082.6	9851.38	10000.2	9898.48	9770.88	9781.4	9511.07	9450.14	9413.25	9415.87	9357.72	9381.15	9407.54	9228.46	9262.9	9208.43	9012.39	9146.75	9034.16	8928.18	8968.81	8784.58	8951.42	8916.82	8623.93	8633.58	8523.22	8573.23	8590.13	8308.01	8573.15	8393.16	8422.38	8247.18	8153.23	8309.87	8212.44	8193.71	8086.88	8111.73	7966.79	8029.13	7924.05	7907.65	7838.91	7833.15	7749.34	7732.81	7843.33	7703.77	7560.81	7645.39	7676.27	7453.11	7495.31	7435.89	7454.49	7428.98	7330.82	7361.65	7427.04	7334.16	7272.88	7204.86	7292.74	7267.35	7195.01	7166.87	7169.53	7068.21	7095.38	6987.83	6931.3	6933.73	6890.15	6965.54	6844.56	6844.23	6678.34	6744.98	6747.04	6647.47	6693.35	6621.06	6611.7	6609.5	6560.88	6479.25	6604.15	6477.43	6430.12	6363.28	6377.11	6334.13	6337.62	6193.38	6346.27	6387.7	6227.49	6173.21	6338.94	6096.02	6176.75	6213.64	6194.28	6194.51	6220.96	6053.79	6059.44	5994.94	6180.15	5999.13	6041.16	5903.14	5936.84	5911.81	5954.66	5784.91	5895.46	5794.45	5771.39	5690.51	5803.21	5739.18	5635.23	5721.89	5697.67	5666.17	5568.88	5512.39	5425.98	5557.51	5538.93	5454.54	5527.84	5481.24	5304.79	5514.22	5468.36	5411.93	5439.7	5357.16	5284.29	5226.08	5274.13	5231.75	5231.56	5250.53	5179.52	5127.77	5074.05	5139.39	5137.73	5175.78	4964.56	5073.86	5039.95	4950.44	4942.16	4845.51	4861.95	4825.45	4855.04	4871.47	4824.01	4860.41	4773.85	4806.69	4701.16	4701.2	4798.69	4799.95	4672.29	4714.34	4637.44	4593.44	4582.77	4562.59	4540.5	4563.45	4576.4	4422.34	4447.49	4501.09	4482.09	4453.04	4373.61	4362.1	4388.69	4370.09	4414.51	4336.35	4351.42	4237.5	4259.98	4266.15	4307.04	4314.96	4227.41	4214.76	4190.49	4194.8	4143.3	4048.98	4113.68	3997.76	4054.71	4039.96	4021.37	4003.67	3926.55	4052.45	3903.92	3978.85	3863.59	3916.9	3878.19	3882.7	3851.53	3868.61	3781.05	3811.56	3819.86	3851.39	3634.3	3766.02	3728.41	3648.1	3788.84	3699.97	3663.37	3648.3	3620.88	3626.15	3612.47	3641.24	3510.4	3586.45	3588.7	3573.41	3578.64	3469.33	3472.41	3451.75	3464.62	3491.73	3414.24	3434.89	3399.41	3421.81	3334.88	3375.86	3347.26	3384.62	3368.58	3284.25	3324.29	3336.74	3279.38	3296.98	3215.2	3234.88	3156.57	3214.74	3193.73	3170.97	3154.87	3180.2	3139.64	3071	3149.94	3161.66	3098.19	3176.25	3118.85	3014.71	3070.64	3084.17	3014.61	2957.95	2942.24	3040.78	3004.96	2966.74	2964.51	2997.05	2980.13	2930.95	2950.04	2880.65	2873.8	2871.67	2820.25	2887.48	2873.71	2824.48	2811.74	2809.63	2853.25	2793.8	2794.21	2798.93	2853.96	2786.78	2755.51	2715.3	2782.67	2711.28	2740.7	2711.31	2688.52	2639.93	2721.24	2679.28	2685.65	2656.01	2635.34	2635.1	2674	2634.29	2716.73	2669.71	2639.6	2555.13	2532.3	2626.79	2568.95	2570.53	2588.54	2547.92	2629.01	2525.3	2545.12	2557.95	2512.41	2506.2	2515.73	2458.33	2518.33	2528.33	2520.22	2497.12	2474.63	2536.99	2463.19	2499.57	2460.94	2477.73	2443.64	2437.29	2464.25	2354.51	2388.2	2447.05	2342.73	2369.69	2373.49	2382.49	2320.25	2299.7	2368.82	2352.15	2281.63	2336.13	2328.29	2352.97	2364.2	2327.4	2316.97	2293.13	2260.12	2310.57	2345.53	2284.12	2273.22	2240.74	2200.75	2251.92	2203.51	2280.97	2253.5	2271.85	2232.9	2254.61	2197.35	2230.03	2196.23	2210.74	2193.36	2167.14	2224.59	2166.82	2161.28	2216.38	2197.12	2135.25	2161.92	2144.55	2219.06	2151.64	2156.55	2133.32	2151.06	2107.37	2145.99	2128.38	2152.03	2179.81	2072.28	2146	2123.99	2107.18	2147.31	2074.24	2100.12	2080.49	2010.81	2087.37	2053.69	2080.52	2072.97	2093.61	2052.26	2005.82	2073.32	2005.74	2017.56	2013.67	1946.03	2034.34	1969.47	1978.41	1927.23	1992.34	1929.65	1989.11	1948.15	1972.2	1911.84	1962.37	1941	1926.54	1944.16	1915.01	1908.44	1943.46	1930.52	1925.24	1902.45	1895.87	1912.68	1862.69	1835.22	1858.08	1879.13	1893.62	1891.58	1856.13	1839.32	1879.04	1893.51	1850.03	1823.94	1834.98	1771.32	1845.57	1824.48	1785.33	1837.97	1760.55	1771.93	1784.52	1792.32	1790.62	1763.11	1772.15	1748.5	1755.55	1776.36	1753.61	1696.98	1727.77	1751.81	1745.65	1713.74	1715.3	1662.76	1681.03	1736.48	1723.73	1734.43	1699.43	1708.88	1689.82	1665.86	1660.08	1702.1	1674.4	1654.7	1615.54	1667.91	1632.77	1642.41	1595.05	1665.84	1587.95	1628.9	1636.61	1606.41	1624.72	1579.81	1604.81	1592.27	1553.09	1586.26	1554.35	1585	1611.37	1578.07	1538.74	1546.22	1539.72	1506.13	1475.11	1497.61	1508.82	1486.44	1568.61	1527.51	1450.96	1525.06	1506.91	1496.3	1466.65	1491.29	1475.14	1490.01	1482.61	1432.23	1485.86	1430.23	1427.34	1465.71	1425.82	1406.25	1491.07	1425.78	1411.39	1433.37	1428.49	1446.51	1418.5	1457.51	1423.56	1408.12	1411.83	1355.65	1367.3	1356.62	1361.79	1312.97	1371.61	1385.91	1339.24	1337.36	1314.37	1315	1358.77	1331.91	1333.81	1289.89	1329.97	1336.31	1334.11	1304.81	1318.44	1306.99	1276.2	1281.32	1287.13	1337.96	1304.48	1292.65	1275.7	1315.46	1274.14	1246.24	1269.99	1243.88	1271.87	1219.66	1231.42	1233.07	1209.92	1223.06	1248.3	1215.6	1246.84	1237.42	1226.91	1192.62	1192.02	1177.8	1202.36	1190.24	1223.41	1180.19	1159.07	1184.02	1189.92	1217.13	1230.48	1195.59	1206.5	1210.79	1177.76	1141.99	1148.18	1119.32	1188.48	1126.5	1146.53	1139.41	1135.73	1125.35	1164.55	1119.46	1107.45	1108.39	1142.81	1130.23	1094.04	1105.14	1125	1113.39	1105.1	1097.98	1104.81	1123.54	1120.08	1102.27	1100.56	1082.53	1089.2	1105.64	1088.2	1080.74	1089.94	1094.2	1066.04	1092.35	1089.46	1057.53	1089.98	1074.86	1073.2	1023.22	1009.7	1070.03	1054.01	1077.25	1026.19	1050.99	1045.29	1051.36	1045.46	1051.85	1029.11	1045.13	1021.82	1069.09	1009.81	1040.73	1012.43	1008.41	1008.32	1020.14	1014.37	1054.96	1008.63	991.004	989.637	993.563	987.972	972.53	984.877	994.777	1023.61	995.146	1012.9	984.291	995.897	994.219	995.728	1001.98	1009.58	978.108	953.854	987.647	981.495	964.942	981.847	955.636	957.015	960.112	982.671	962.967	959.08	943.302	957.354	983.659	953.943	934.503	946.803	921.052	952.462	972.809	964.029	944.676	904.305	942.159	932.614	968.637	959.402	919.95	933.891	938.329	907.389	928.462	903.821	955.784	932.14	916.33	901.611	896.953	902.11	907.183	884.408	937.585	861.26	915.837	891.166	855.864	938.598	858.444	884.211	875.575	880.575	899.818	828.659	849.191	888.737	857.741	869.852	838.598	828.809
4	1319.26	1140.08	1501.57	1082.6	1265.27	1207.67	1150.3	1153.77	1645.1	1467.66	1166.39	986.144	1299.52	1056.16	1122.56	1064.01	1193.15	1322.73	1452.62	1392.8	1268.88	1144.2	1273.64	1531.06	1150.37	1472.75	1475.86	1543.62	1160.69	1228.59	1232.24	1756.49	1500.96	1374.69	1575.74	1119.25	1452.09	1587.63	1325.59	1460.56	1329.68	998.522	1266.29	2468.87	8217.88	12244.5	7439.6	4230.87	2086.64	1754.65	1556.69	1425.78	1498.63	1640.48	1508.99	1514.16	1242.97	1108.35	1320.03	1184.27	1676	1889.64	2103.73	2388.48	2220.01	1460.2	1454.79	976.578	808.751	653.918	566.878	632.136	562.806	509.337	674.233	739.702	651.147	562.748	571.099	495.372	694.12	526.748	591.5	642.882	639.609	634.806	563.655	558.801	618.503	599.982	619.269	550.874	534.059	493.589	577.3	661.14	499.748	592.597	467.417	560.246	571.483	486.882	553.225	465.175	473.201	496.575	464.248	465.387	532.686	514.84	416.431	476.291	448.93	478.788	531.245	366.858	428.493	393.099	442.857	398.09	447.852	507.578	309.219	420.743	388.517	407.79	417.131	416.349	394.516	360.993	415.248	370.043	327.801	413.431	442.297	383.287	361.012	357.415	354.873	363.305	437.691	362.309	360.181	366.337	390.579	343.035	422.699	440.003	377.099	367.85	330.785	346.521	379.593	351.021	304.873	362.006	366.447	397.613	405.408	380.002	445.463	399.254	378.043	350.082	339.947	322.627	233.22	368.205	373.169	330.156	343.296	358.111	304.007	343.183	342.463	387.911	379.336	324.741	370.153	391.038	365.131	384.925	314.805	342.357	391.536	359.803	351.21	350.299	356.187	310.739	387.347	362.577	345.13	349.939	328.578	287.161	238.093	320.743	339.56	330.999	282.082	337.16	337.337	329.502	265.435	336.434	286.799	345.356	317.921	382.417	314.484	371.044	362.293	327.74	274.238	297.485	314.531	288.201	274.981	318.007	304.641	346.923	308.676	289.35	221.151	300.285	329.739	310.02	345.194	314.332	313.876	324.601	334.099	343.359	276.864	252.42	262.583	288.987	326.305	307.32	295.146	293.934	264.006	279.079	322.054	281.653	296.135	261.378	303.721	271.182	298.819	288.025	314.359	318.294	311.404	288.8	325.154	255.002	270.084	322.289	316.529	289.744	315.468	262.176	376.165	306.806	320.67	293.251	317.443	331.091	354.159	286.033	298.851	307.456	282.278	296.899	286.274	329.379	338.076	327.586	336.379	256.941	303.354	301.858	315.331	323.593	302.303	313.644	357.951	347.241	272.353	294.506	298.286	279.344	319.722	295.766	299.25	330.363	329.973	338.082	318.494	307.891	311.079	336.722	313.621	290.475	271.74	279.362	274.046	290.604	259.439	305.775	342.78	327.826	295.717	301.758	337.598	295.386	299.526	278.192	322.238	303.841	277.913	297.618	342.003	321.077	303.827	302.348	304.721	307.375	270.716	298.111	365.227	317.209	328.573	331.507	318.1	300.82	338.785	350.221	249.092	342.1	368.005	335.349	314.936	341.597	330.344	268.704	359.33	292.378	339.623	293.258	352.78	340.823	332.139	312.04	325.506	306.048	367.861	366.867	383.658	381.624	365.118	324.06	344.91	365.951	347.317	314.196	356.05	405.066	351.124	374.989	394.797	354.492	370.253	378.831	370.329	376.34	413.8	402.656	377.234	393.014	406.115	378.871	398.853	434.311	397.661	385.332	440.989	373.75	396.661	399.294	421.709	413.967	422.253	426.871	438.481	424.894	441.247	460.428	442.821	476.632	490.695	447.064	436.282	467.659	492.717	466.352	423.944	477.382	508.917	464.181	507.768	531.085	512.522	475.314	529.225	490.298	473.595	500.261	523.843	519.863	521.875	526.269	557.641	528.684	546.602	510.337	521.813	547.007	571.256	592.309	535.846	622.061	625.281	588.366	599.477	598.751	559.238	598.404	588.283	587.697	572.956	636.231	671.912	639.944	632.258	638.2	636.336	696.299	613.074	652.083	657.076	654.5	742.807	707.952	695.798	724.505	634.417	697.548	746.068	694.933	726.905	748.161	692.583	733.749	726.842	830.422	793.469	711.825	698.23	804.019	749.966	755.243	806.326	794.265	775.561	791.664	811.502	826.634	785.484	835.273	791.56	887.594	856.755	872.145	827.314	848.159	864.754	794.324	889.69	841.828	872.421	876.168	826.473	871.779	884.125	851.012	866.152	901.501	869.005	916.63	879.761	923.264	902.1	934.927	934.803	939.792	947.897	936.279	965.361	959.432	947.151	885.332	925.951	941.121	933.563	926.486	961.582	973.015	1067.37	988.814	1041	968.663	982.493	1023.48	958.464	1076.78	1077.06	1038.35	1059.94	1017.87	1029.09	1009.47	1087.16	1139.52	1031.18	1068.51	1100.27	1107.2	1085.86	1137.05	1058.75	1151.65	1110.29	1103.5	1101.98	1142.78	1172.61	1162.79	1103.28	1100.5	1151.47	1123.71	1134.84	1187.86	1142.75	1187.68	1090.06	1184.72	1170.01	1186.89	1211.49	1236.28	1215.47	1244.28	1193.49	1211.36	1213.82	1317.26	1257.85	1142.75	1267.96	1290.57	1236.17	1241.8	1254.58	1280.84	1300.36	1275.25	1315.31	1283.61	1311.71	1257.98	1298.31	1332.3	1366.76	1274.51	1281.81	1316.66	1301	1304.35	1319.73	1267.35	1321.27	1313.85	1367.48	1335.1	1377.94	1296.16	1263.13	1364.16	1363.72	1340.48	1324.18	1385.49	1377.97	1326.41	1359.18	1434.25	1389.16	1395.37	1409.53	1492.14	1441.62	1401.52	1441.57	1460.27	1463.12	1461.67	1399.53	1476.4	1444.76	1447.65	1440.53	1488.78	1491.06	1562.47	1492.72	1450.09	1490.4	1532.64	1500.62	1551.37	1488.12	1546.7	1565.8	1548.74	1474.06	1508.11	1539.37	1559	1480.93	1595.01	1631.45	1556.73	1583.72	1635.67	1666.96	1644.76	1630.86	1613.08	1569.05	1669.57	1653.97	1673.81	1706.37	1653.89	1688.73	1676.3	1665.03	1688.08	1700.92	1717.26	1714.9	1735.29	1775.68	1788.23	1754.9	1775	1820.27	1716.26	1809.91	1784.54	1897.08	1814.91	1825.78	1838.18	1846.2	1886.85	1850.84	1813.36	1809.53	1793.68	1894.49	1842.53	1964.42	1878.98	1892.31	1883.41	1959.56	1978.63	1879.58	1962.81	2037.12	1990.88	1981.64	2010.08	1994.44	2012.99	2024.77	2047.98	2008.18	2025.54	2066.97	1997.71	2089.4	2062.14	2080.44	2102.77	2127.92	2098.32	2088.23	2099.22	2101.05	2146	2070.22	2090.57	2123.38	2159.35	2132.31	2171.12	2088.38	2183.84	2172.2	2261.76	2197.48	2192.29	2212.79	2154.32	2160.8	2268.6	2250.89	2213.13	2245.65	2303.42	2328.79	2289.49	2354.35	2211.52	2280.11	2343.36	2363.47	2432.02	2334.44	2262.64	2277.71	2262.95	2358.58	2356.11	2308.6	2362.7	2302.59	2370.79	2417.2	2303.6	2399.96	2392.61	2375.78	2487.23	2371.07	2338.14	2385.01	2393.66	2389.18	2418.21	2367.68	2462.12	2391.15	2362.52	2386.37	2543.39	2401.32	2421.12	2398.89	2403.78	2440.68	2410.05	2395.59	2434.3	2426.64	2443.43	2491.5	2405.96	2515.38	2434.09	2497.49	2430.07	2473.29	2387.58	2538.99	2526.62	2506.12	2388.53	2588.89	2444.44	2529.44	2409.86	2503.95	2430.64	2445.23	2489.17	2373.13	2412.18	2477.87	2477.92	2466.15	2419.57	2498.57	2402.96	2470.17	2427.16	2552.25	2493.31	2429.41	2440.98	2581.12	2405.66	2537.59	2522.59	2487.94	2427.76	2422.44	2498.55	2491.88	2525.42	2400.23	2328.66	2450.18	2492.31	2404.54	2441.01	2492	2495.17	2473.86	2398	2438.86	2369.49	2425.74	2447.49	2481.37	2388.5	2481.04	2499.54	2513.92	2400.67	2368.85	2393.76	2475.65	2403.59	2397.2	2482.14	2362.25	2381.69	2463.17	2313.43	2384.5	2367.44	2414.5	2356.92	2375.03	2343.3	2285.73	2333.68	2342.37	2397.51	2320.02	2296.62	2261.07	2369.43	2262.06	2290.82	2246.78	2317.44	2295.79	2210.58	2211.64	2225.06	2266.43	2205.81	2265.85	2197.73	2182.07	2219.28	2274.05	2169.74	2224.23	2209.1	2199.49	2176.07	2139.54	2140.19	2208.38	2243.41	2186.67	2177.41	2154.84	2217.14	2162.21	2226.74	2160.56	2157.9	2108.5	2221.82	2188.8	2101.47	2130.4	2172.94	2124.11	2085.19	2166.94	2166.32	2045.76	2092.25	2103.28	2060.83	2086.13	2060.8	2032.45	2160.44	1971.25	2081.88	2056.66	2008.28	2053.69	2085.56	2049.36	2019.3	2028.94	2062.54	1986.28	1967.62	2028.83	2023.11	1958.93	2048.74	1976.06	2014.66	1982.4	1974.11	2001.48	1975.43	1974.67	1927.47	1988.86	1926.67	1961.39	1896.43	1874.62	1930.91	1897.42	1910.89	1889.37	1910.85	1897.29	1864.44	1899.13	1871.75	1847.68	1833.43	1845.62	1872.79	1857.01	1886.17	1809.07	1808.81	1861.04	1853.26	1835.64	1847.62	1805.68	1804.31	1840.11	1830.81	1820.02	1823.57	1831.28	1814.97	1809.44	1819.32	1835.97	1784.06	1800.99	1771.78	1810.04	1762.59	1801.35	1797.71	1766.55	1756.88	1767	1778.82	1760.9	1771.69	1763.67	1734.89	1758.39	1751.48	1783.91	1763.41	1769.75	1764.13	1771.95	1743.05	1723.07	1777.18	1797.29	1742.54	1736.41	1735.29	1743.56	1762.99	1777.47	1769.63	1750.71	1759.44	1751.66	1723.81	1733.31	1747.85	1757.01	1719.39	1656.59	1647.43	1667.9	1672.2	1621.52	1744.88	1684.27	1689.04	1661.61	1664.26	1665.03	1699.99	1617.16	1589.18	1694.64	1627.58	1581.07	1660.42	1630.19	1643.37	1610.78	1662.77	1573.94	1635.86	1625.65	1646.81	1633.43	1561.61	1574.77	1583.51	1573.6	1570.1	1615.68	1623.51	1610.44	1597.42	1574.7	1558.73	1552.16	1572.68	1597.17	1537.7	1571.74	1447.95	1541.24	1514.5	1486.96	1513.3	1505.21	1499.1	1466.7	1534.22	1476.07	1532.75	1425.21	1452.93	1470.11	1454.62	1428.1	1476.09	1458.24	1417.31	1445.61	1403.85	1430.15	1395.13	1415.69	1417.69	1402.78	1391.03	1391.54	1427.16	1384.94	1332.52	1375.19	1385.41	1317.89	1410.56	1396.28	1356.43	1322.93	1344.07	1310.56	1255.91	1311.25	1265.62	1315.59	1277.37	1282.88	1234.74	1328.57	1309.72	1312.95	1285.78	1340.86	1306.84	1315.44	1299.46	1303.07	1248.12	1289.78	1285.1	1323.15	1261.11	1267.37	1261.95	1244.02	1294.61	1266.2	1228.41	1240.42	1269.67	1222.55	1243.79	1232.23	1229.23	1250.25	1203.38	1258.51	1235.27	1260.59	1234.37	1196.65	1229.99	1203.96	1209.84	1219.73	1180.45	1202.94	1188.08	1155.55	1207.1	1207.08	1164.33	1206.11	1193	1208.73	1188.72	1192.09	1189.33	1195.24	1145.04	1193.58	1170.11	1195.17	1202.39	1136.13	1168.6	1160.91	1120.2	1143.65	1173.4	1107.79	1191.92	1133.06	1183.74	1147.57	1163.49	1153.5	1138.13	1169.86	1162.26	1124.98	1127.97	1173.11	1133.7	1143.04	1149.6	1077.41	1135.39	1119.27	1097.94	1102.62	1113.76	1100.19	1109.98	1066.11	1101.76	1115.04	1122.56	1083.59	1092.26	1060.16	1070.35	1110.78	1102.51	1028.36	1084.42	1088.24	1070.38	1093.75	1098.65	1070.02	1119.07	1044.02	1097.43	1050.32	1090.94	1081.41	1079.22	1115.83	1025.16	1067.15	1022.97	1074.33	1085.83	1036.17	992.967	1068	1084.9	1037.34	1063.07	1070.44	1047	1010.06	1024.4	1020.19	998.964	1075.9	983.783	1056.08	1013.71	1002.01	995.787	1028.44	1009.46	1008.89	1017.93	1000.47	974.372	974.937	1010.39	989.784	976.422	981.334	1024.86	1000.25	996.978	983.354	984.114	966.977	998.982	961.138	999.698	978.299	966.533	988.228	996.543	960.9	947.88	983.042	980.492	985.672	963.319	982.375	974	968.914	957.133	939.332	987.506	982.134	988.769	966.367	949.069	952.674	965.951	918.904	955.103	911.418	956.092	917.689	923.737	961.752	924.217	936.499	961.787	933.308	988.662	910.523	941.773	930.722	899.551	919.423	911.732	910.353	906.849	914.722	916.295	947.964	913.479	968.516	893.399	919.758	913.745	916.463	949.417	923.734	904.613	918.366	917.391	879.546	909.884	903.804	900.322	935.356	893.856	915.037	885.705	883.108	907.822	940.601	893.772	893.468	895.162	872.961	904.692	884.306	886.3	902.653	823.982	886.181	875.841	845.09	888.801	884.33	872	844.387	848.308	874.708	852.337	896.694	797.819	868.412	858.802	851.366	850.023	854.244	857.936	877.924	879.919	842.764	848.737	861.131	811.858	888.594	837.557	844.204	784.887	864.32	861.242	839.89	849.161	865.327	836.946	824.72	839.118	854.676	831.524	807.234	827.023	831.436	825.467	826.1	838.929	832.257	823.353	830.041	805.979	832.299	835.506	794.183	818.401	835.531	846.632	770.095	787.9	807.634	780.935	799.494	785.412	799.212	784.442	779.648	762.601	797.313	797.495	776.102	794.926	785.446	742.116	787.026	751.487	766.945	745.02	783.993	800.091	759.671	750.398	776.874	794.678	765.323	784.976	766.19	758.485	774.794	749.52	753.462	749.394	782.237	765.322	759.929	738.94	758.08	777.703	743.746	762.655	713.162	753.51	754.232	730.382	748.136	737.018	768.394	711.827	718.242	750.225	770.648	734.787	760.595	743.365	719.719	766.611	706.69	740.148	729.553	752.51	748.224	733.461	749.98	704.419	711.43	728.359	730.029	750.839	725.093	712.904	756.351	719.369	703.709	703.458	703.614	692.459	725.226	733.911	712.724	686.72	719.805	733.739	676.609	690.067	724.765	704.581	738.448	701.249	697.589	707.435	697.028	694.939	711.207	718.294	721.844	699.946	681.816	688.311	693.65	717.232	718.777	686.272	704.851	699.532	704.365	722.037	704.081	689.811	716.613	710.595	683.493	670.805	701.627	673.529	696.08	693.259	695.919	686.874	700.135	692.535	694.092	676.455	698.582	671.516	676.399	693.543	684.701	667.012	709.995	665.026	623.627	674.362	658.335	657.559	658.116	688.259	679.568	641.5	667.853	685.388	682.832	675.237	643.811	679.589	665.625	647.996	652.316	643.951	651.556	636.711	650.897	659.875	659.373	651.214	649.414	658.867	658.885	667.585	661.552	636.598	645.749	657.871	635.062	639.422	630.866	633.994	613.51	602.325	631.361	645.003	619.109	635.852	570.277	625.189	640.121	623.991	620.194	597.377	594.035	577.561	583.517	638.158	617.865	614.341	619.907	625.536	607.752	613.243	592.41	582.756	585.792	592.191	591.34	612.42	604.953	609.538	585.762	612.058	577.039	590.142	600.962	606.662	608.908	574.983	611.683	579.212	579.249	591.416	551.696	600.744	594.8	587.643	586.423	580.437	572.235	590.543	603.331	586.736	542.802	591.7	550.834	554.915	568.677	569.35	566.078	556.462	582.289	573.101	568.307	571.182	580.114	562.436	540.468	591.06	561.124	544.221	566.319	561.302	549.054	539.399	575.117	566.861	557.729	582.357	554.828	565.683	549.581	556.805	563.826	573.423	561.277	562.093	562.623	561.192	535.468	599.48	568.898	588.518	550.478	564.131	560.401	564.73	558.266	569.216	546.351	541.968	549.302	542.219	528.848	550.237	528.946	540.484	532.771	553.89	548.761	545.483	556.576	559.056	515.843	521.648	530.974	571.856	534.183	555.481	547.794	537.266	509.223	514.275	535.371	531.084	530.138	549.652	538.356	554.755	548.086	529.359	514.013	528.345	540.442	529.961	532.078	533.259	536.116	558.458	538.572	522.017	539.323	527.04	524.01	529.254	539.384	522.403	548.962	490.072	537.415	548.211	532.657	536.784	530.577	509.535	510.5	522.61	520.309	524.048	514.896	545.1	517.809	516.993	529.807	521.993	546.688	501.873	529.662	537.462	511.698	526.746	538.423	493.519	503.176	532.356	492.095	509.313	503.737	507.46	519.543	523.987	520.114	519.769	524.419	513.587	506.486	498.396	508.037	517.258	508.58	496.746	505.578	515.817	479.442	479.356	505.795	471.704	520.314	491.485	492.692	504.236	493.713	507.347	482.626	492.948	507.107	505.063	493.064	487.085	498.913	507.922	500.346	492.034	445.518	488.614	497.498	506.187	467.585	495.288	475.508	489.767	459.849	484.267	476.683	474.231	467.66	481.421	483.017	491.789	478.496	488.109	475.641	476.354	469.361	465.522	475.659	494.7	465.271	507.479	465.82	488.239	473.969	468.06	486.491	476.753	451.773	488.797	456.756	471.521	468.26	493.206	468.21	483.864	466.272	468.378	466.088	461.285	489.655	460.26	469.507	479.428	468.865	473.292	449.989	445.554	482.699	471.336	464.023	469.077	462.81	468.54	477.154	461.429	486.437	472.289	459.059	478.687	456.399	495.296	466.143	461.947	446.48	465.433	464.319	455.097	452.891	456.171	445.23	463.2	467.761	430.137	462.466	447.339	466.019	462.697	443.192	436.698	442.63	450.305	431.361	432.609	427.526	427.154	448.291	457.38	431.17	444.873	461.734	448.106	464.005
